time	Id(M1)
Step Information: Vgs=100m  (Step: 1/5)
0.000000000000000e+00	0.000000e+00
2.621439925860614e-04	6.587418e-07
5.242879851721227e-04	1.310290e-06
1.048575970344245e-03	2.592200e-06
2.048575970344245e-03	4.961309e-06
3.048575970344245e-03	7.234943e-06
4.048575970344245e-03	9.417716e-06
5.048575970344246e-03	1.151389e-05
6.048575970344246e-03	1.352744e-05
8.048575970344245e-03	1.732112e-05
9.175578059311511e-03	1.932986e-05
1.136093088967265e-02	2.297935e-05
1.436093088967266e-02	2.750566e-05
1.736093088967266e-02	3.153186e-05
1.848182000000000e-02	3.291992e-05
2.168182000000000e-02	3.656877e-05
2.568182000000000e-02	4.055025e-05
2.797273000000000e-02	4.257987e-05
3.377273000000000e-02	4.704760e-05
3.706364000000000e-02	4.923132e-05
4.486364000000001e-02	5.365908e-05
5.604545000000000e-02	5.878171e-05
6.513636000000000e-02	6.231352e-05
7.522727000000000e-02	6.584559e-05
8.631818000000001e-02	6.943778e-05
1.003000000000000e-01	7.370655e-05
1.459444400000000e-01	8.675089e-05
1.923888900000000e-01	9.954281e-05
2.388333300000000e-01	1.122134e-04
2.842777800000000e-01	1.245862e-04
3.297222200000000e-01	1.369629e-04
3.751666700000000e-01	1.493530e-04
4.216111100000000e-01	1.620325e-04
4.680555600000000e-01	1.741024e-04
5.000000000000000e-01	1.821709e-04
Step Information: Vgs=200m  (Step: 2/5)
0.000000000000000e+00	0.000000e+00
2.621439925860614e-04	7.491926e-07
5.242879851721227e-04	1.493175e-06
1.048575970344245e-03	2.965712e-06
2.048575970344245e-03	5.718545e-06
3.048575970344245e-03	8.400350e-06
4.048575970344245e-03	1.101361e-05
6.048575970344246e-03	1.604373e-05
8.048575970344245e-03	2.082617e-05
9.175578059311511e-03	2.341786e-05
1.236093088967265e-02	3.036593e-05
1.536093088967266e-02	3.643519e-05
1.848182000000000e-02	4.230050e-05
2.268182000000000e-02	4.953230e-05
2.757273000000000e-02	5.708413e-05
3.277273000000000e-02	6.418902e-05
3.706364000000000e-02	6.940472e-05
4.386364000000001e-02	7.660827e-05
4.795455000000001e-02	8.038762e-05
5.604545000000000e-02	8.683463e-05
6.513636000000000e-02	9.278194e-05
7.522727000000000e-02	9.823068e-05
8.631818000000001e-02	1.032788e-04
1.003000000000000e-01	1.087595e-04
1.375000000000000e-01	1.210036e-04
1.469444400000000e-01	1.238387e-04
1.923888900000000e-01	1.368344e-04
2.388333300000000e-01	1.496048e-04
2.842777800000000e-01	1.619268e-04
3.297222200000000e-01	1.741953e-04
3.751666700000000e-01	1.864599e-04
4.216111100000000e-01	1.990137e-04
4.680555600000000e-01	2.115978e-04
5.000000000000000e-01	2.202731e-04
Step Information: Vgs=300m  (Step: 3/5)
0.000000000000000e+00	0.000000e+00
5.242879851721227e-04	1.573056e-06
1.048575970344245e-03	3.129974e-06
2.048575970344245e-03	6.055651e-06
3.048575970344245e-03	8.925032e-06
5.048575970344246e-03	1.450087e-05
7.048575970344246e-03	1.986884e-05
9.175578059311511e-03	2.536131e-05
1.236093088967265e-02	3.319420e-05
1.636093088967266e-02	4.241116e-05
1.848182000000000e-02	4.703767e-05
2.368182000000000e-02	5.767610e-05
2.757273000000000e-02	6.502818e-05
3.377273000000000e-02	7.576288e-05
3.706364000000000e-02	8.100598e-05
4.486364000000001e-02	9.227640e-05
5.395455000000001e-02	1.035385e-04
6.433636000000001e-02	1.142272e-04
7.522727000000000e-02	1.233415e-04
8.631818000000001e-02	1.308836e-04
1.003000000000000e-01	1.385961e-04
1.255000000000000e-01	1.494750e-04
1.459444400000000e-01	1.567838e-04
1.923888900000000e-01	1.712665e-04
2.388333300000000e-01	1.845513e-04
2.842777800000000e-01	1.971223e-04
3.297222200000000e-01	2.095208e-04
3.751666700000000e-01	2.218517e-04
4.216111100000000e-01	2.344356e-04
4.680555600000000e-01	2.470275e-04
5.000000000000000e-01	2.557001e-04
Step Information: Vgs=400m  (Step: 4/5)
0.000000000000000e+00	0.000000e+00
5.242879851721227e-04	1.617815e-06
1.048575970344245e-03	3.222400e-06
2.048575970344245e-03	6.246777e-06
4.048575970344245e-03	1.215694e-05
6.048575970344246e-03	1.788887e-05
9.175578059311511e-03	2.651115e-05
1.236093088967265e-02	3.489214e-05
1.636093088967266e-02	4.487994e-05
1.848182000000000e-02	4.994748e-05
2.368182000000000e-02	6.174805e-05
2.757273000000000e-02	7.003496e-05
3.477273000000000e-02	8.424876e-05
3.786364000000000e-02	8.993527e-05
4.615455000000000e-02	1.040565e-04
5.604545000000000e-02	1.189182e-04
6.513636000000000e-02	1.308422e-04
7.522727000000000e-02	1.422975e-04
8.631818000000001e-02	1.529400e-04
1.003000000000000e-01	1.638857e-04
1.195000000000000e-01	1.755529e-04
1.459444400000000e-01	1.877368e-04
1.923888900000000e-01	2.042538e-04
2.388333300000000e-01	2.184192e-04
2.842777800000000e-01	2.314382e-04
3.297222200000000e-01	2.440959e-04
3.751666700000000e-01	2.565845e-04
4.216111100000000e-01	2.692674e-04
4.680555600000000e-01	2.819183e-04
5.000000000000000e-01	2.906156e-04
Step Information: Vgs=500m  (Step: 5/5)
0.000000000000000e+00	0.000000e+00
5.242879851721227e-04	1.645957e-06
1.048575970344245e-03	3.280734e-06
2.048575970344245e-03	6.368211e-06
4.048575970344245e-03	1.242524e-05
7.048575970344246e-03	2.122643e-05
9.175578059311511e-03	2.726834e-05
1.336093088967266e-02	3.870243e-05
1.848182000000000e-02	5.192329e-05
2.468182000000000e-02	6.688903e-05
2.757273000000000e-02	7.350536e-05
3.577273000000000e-02	9.112257e-05
4.486364000000001e-02	1.088404e-04
5.524545000000000e-02	1.269917e-04
6.513636000000000e-02	1.424189e-04
7.522727000000000e-02	1.564352e-04
8.631818000000001e-02	1.699701e-04
1.003000000000000e-01	1.844508e-04
1.175000000000000e-01	1.987887e-04
1.395000000000000e-01	2.128140e-04
1.469444400000000e-01	2.167635e-04
1.819444400000000e-01	2.320830e-04
1.953888900000000e-01	2.370659e-04
2.388333300000000e-01	2.514884e-04
2.842777800000000e-01	2.651654e-04
3.297222200000000e-01	2.781998e-04
3.751666700000000e-01	2.909203e-04
4.216111100000000e-01	3.037543e-04
4.680555600000000e-01	3.165020e-04
5.000000000000000e-01	3.252443e-04
